#Extended Lambda and Extended Flux
   1233.0   0.00106845
   1234.0   0.00112855
   1235.0   0.00118866
   1236.0   0.00124877
   1237.0   0.00113888
   1238.0   0.001029
   1239.0   0.00091912
   1240.0   0.00080923
   1241.0   0.00080948
   1242.0   0.00080972
   1243.0   0.00080996
   1244.0   0.0008102
   1245.0   0.00079884
   1246.0   0.00078749
   1247.0   0.00077613
   1248.0   0.00076477
   1249.0   0.00080966
   1250.0   0.00085454
   1251.0   0.00089942
   1252.0   0.00094431
   1253.0   0.00088982
   1254.0   0.00083533
   1255.0   0.00078084
   1256.0   0.00072635
   1257.0   0.00067531
   1258.0   0.00062426
   1259.0   0.00057322
   1260.0   0.00052217
   1261.0   0.00059581
   1262.0   0.00066945
   1263.0   0.00074309
   1264.0   0.00081672
   1265.0   0.00088414
   1266.0   0.00095156
   1267.0   0.00101897
   1268.0   0.00108639
   1269.0   0.00105002
   1270.0   0.00101366
   1271.0   0.00097729
   1272.0   0.00094092
   1273.0   0.00096358
   1274.0   0.00098623
   1275.0   0.00100888
   1276.0   0.00103154
   1277.0   0.00098013
   1278.0   0.00092872
   1279.0   0.00087731
   1280.0   0.00082591
   1281.0   0.00082899
   1282.0   0.00083207
   1283.0   0.00083515
   1284.0   0.00083823
   1285.0   0.00078906
   1286.0   0.00073988
   1287.0   0.00069071
   1288.0   0.00064154
   1289.0   0.00064637
   1290.0   0.00065121
   1291.0   0.00065604
   1292.0   0.00066087
   1293.0   0.00062016
   1294.0   0.00057944
   1295.0   0.00053872
   1296.0   0.00049801
   1297.0   0.00050024
   1298.0   0.00050248
   1299.0   0.00050471
   1300.0   0.00050695
   1301.0   0.00054893
   1302.0   0.00059092
   1303.0   0.0006329
   1304.0   0.00067489
   1305.0   0.00062789
   1306.0   0.00058089
   1307.0   0.00053389
   1308.0   0.00048689
   1309.0   0.00049263
   1310.0   0.00049837
   1311.0   0.00050411
   1312.0   0.00050985
   1313.0   0.00057533
   1314.0   0.00064081
   1315.0   0.0007063
   1316.0   0.00077178
   1317.0   0.00074254
   1318.0   0.00071331
   1319.0   0.00068407
   1320.0   0.00065483
   1321.0   0.00067555
   1322.0   0.00069627
   1323.0   0.00071699
   1324.0   0.00073771
   1325.0   0.00063713
   1326.0   0.00053655
   1327.0   0.00043597
   1328.0   0.00033539
   1329.0   0.00039737
   1330.0   0.00045935
   1331.0   0.00052133
   1332.0   0.00058331
   1333.0   0.00058023
   1334.0   0.00057714
   1335.0   0.00057406
   1336.0   0.00057098
   1337.0   0.00057751
   1338.0   0.00058403
   1339.0   0.00059055
   1340.0   0.00059708
   1341.0   0.00067772
   1342.0   0.00075837
   1343.0   0.00083902
   1344.0   0.00091966
   1345.0   0.00082959
   1346.0   0.00073952
   1347.0   0.00064945
   1348.0   0.00055938
   1349.0   0.00055419
   1350.0   0.00054899
   1351.0   0.0005438
   1352.0   0.0005386
   1353.0   0.00053033
   1354.0   0.00052205
   1355.0   0.00051378
   1356.0   0.0005055
   1357.0   0.00051257
   1358.0   0.00051964
   1359.0   0.0005267
   1360.0   0.00053377
   1361.0   0.00050876
   1362.0   0.00048375
   1363.0   0.00045874
   1364.0   0.00043373
   1365.0   0.00040721
   1366.0   0.00038069
   1367.0   0.00035418
   1368.0   0.00032766
   1369.0   0.00036004
   1370.0   0.00039242
   1371.0   0.00042479
   1372.0   0.00045717
   1373.0   0.00046503
   1374.0   0.00047288
   1375.0   0.00048073
   1376.0   0.00048859
   1377.0   0.00049432
   1378.0   0.00050006
   1379.0   0.0005058
   1380.0   0.00051154
   1381.0   0.00050405
   1382.0   0.00049656
   1383.0   0.00048907
   1384.0   0.00048158
   1385.0   0.00046847
   1386.0   0.00045536
   1387.0   0.00044225
   1388.0   0.00042914
   1389.0   0.00044437
   1390.0   0.00045959
   1391.0   0.00047481
   1392.0   0.00049003
   1393.0   0.00050508
   1394.0   0.00052012
   1395.0   0.00053516
   1396.0   0.0005502
   1397.0   0.00051607
   1398.0   0.00048194
   1399.0   0.00044781
   1400.0   0.00041368
   1401.0   0.00039942
   1402.0   0.00038517
   1403.0   0.00037091
   1404.0   0.00035665
   1405.0   0.00033285
   1406.0   0.00030905
   1407.0   0.00028525
   1408.0   0.00026145
   1409.0   0.00032482
   1410.0   0.00038819
   1411.0   0.00045155
   1412.0   0.00051492
   1413.0   0.00045325
   1414.0   0.00039157
   1415.0   0.00032989
   1416.0   0.00026821
   1417.0   0.00031811
   1418.0   0.00036801
   1419.0   0.00041791
   1420.0   0.0004678
   1421.0   0.00048442
   1422.0   0.00050103
   1423.0   0.00051764
   1424.0   0.00053425
   1425.0   0.00054114
   1426.0   0.00054803
   1427.0   0.00055491
   1428.0   0.0005618
   1429.0   0.00057213
   1430.0   0.00058246
   1431.0   0.00059279
   1432.0   0.00060312
   1433.0   0.00056645
   1434.0   0.00052978
   1435.0   0.00049312
   1436.0   0.00045645
   1437.0   0.00048798
   1438.0   0.00051951
   1439.0   0.00055105
   1440.0   0.00058258
   1441.0   0.00060439
   1442.0   0.0006262
   1443.0   0.000648
   1444.0   0.00066981
   1445.0   0.00062022
   1446.0   0.00057062
   1447.0   0.00052102
   1448.0   0.00047143
   1449.0   0.00046406
   1450.0   0.00045669
   1451.0   0.00044932
   1452.0   0.00044195
   1453.0   0.00053951
   1454.0   0.00063707
   1455.0   0.00073463
   1456.0   0.00083219
   1457.0   0.00077522
   1458.0   0.00071826
   1459.0   0.00066129
   1460.0   0.00060433
   1461.0   0.00060469
   1462.0   0.00060505
   1463.0   0.00060542
   1464.0   0.00060578
   1465.0   0.00067579
   1466.0   0.00074581
   1467.0   0.00081582
   1468.0   0.00088583
   1469.0   0.00086451
   1470.0   0.00084318
   1471.0   0.00082186
   1472.0   0.00080054
   1473.0   0.00076441
   1474.0   0.00072829
   1475.0   0.00069216
   1476.0   0.00065604
   1477.0   0.00078773
   1478.0   0.00091942
   1479.0   0.00105111
   1480.0   0.0011828
   1481.0   0.00107008
   1482.0   0.00095736
   1483.0   0.00084463
   1484.0   0.00073191
   1485.0   0.00067132
   1486.0   0.00061073
   1487.0   0.00055014
   1488.0   0.00048955
   1489.0   0.00047928
   1490.0   0.00046901
   1491.0   0.00045874
   1492.0   0.00044847
   1493.0   0.00042256
   1494.0   0.00039664
   1495.0   0.00037073
   1496.0   0.00034481
   1497.0   0.00040166
   1498.0   0.0004585
   1499.0   0.00051535
   1500.0   0.00057219
   1501.0   0.00061484
   1502.0   0.00065749
   1503.0   0.00070014
   1504.0   0.00074279
   1505.0   0.0007693
   1506.0   0.00079582
   1507.0   0.00082234
   1508.0   0.00084886
   1509.0   0.00080609
   1510.0   0.00076332
   1511.0   0.00072055
   1512.0   0.00067778
   1513.0   0.00062595
   1514.0   0.00057412
   1515.0   0.00052229
   1516.0   0.00047046
   1517.0   0.00048224
   1518.0   0.00049402
   1519.0   0.0005058
   1520.0   0.00051758
   1521.0   0.00052652
   1522.0   0.00053546
   1523.0   0.0005444
   1524.0   0.00055334
   1525.0   0.00061345
   1526.0   0.00067356
   1527.0   0.00073366
   1528.0   0.00079377
   1529.0   0.00076846
   1530.0   0.00074315
   1531.0   0.00071784
   1532.0   0.00069252
   1533.0   0.00062444
   1534.0   0.00055636
   1535.0   0.00048828
   1536.0   0.0004202
   1537.0   0.0004199
   1538.0   0.0004196
   1539.0   0.0004193
   1540.0   0.00041899
   1541.0   0.00045433
   1542.0   0.00048967
   1543.0   0.00052501
   1544.0   0.00056035
   1545.0   0.00064063
   1546.0   0.00072092
   1547.0   0.0008012
   1548.0   0.00088148
   1549.0   0.00076405
   1550.0   0.00064661
   1551.0   0.00052918
   1552.0   0.00041175
   1553.0   0.00040897
   1554.0   0.00040619
   1555.0   0.00040341
   1556.0   0.00040063
   1557.0   0.0003605
   1558.0   0.00032037
   1559.0   0.00028024
   1560.0   0.00024011
   1561.0   0.0002794
   1562.0   0.00031868
   1563.0   0.00035796
   1564.0   0.00039725
   1565.0   0.00041084
   1566.0   0.00042443
   1567.0   0.00043802
   1568.0   0.00045161
   1569.0   0.00044177
   1570.0   0.00043192
   1571.0   0.00042208
   1572.0   0.00041223
   1573.0   0.00041634
   1574.0   0.00042044
   1575.0   0.00042455
   1576.0   0.00042866
   1577.0   0.00045977
   1578.0   0.00049088
   1579.0   0.00052199
   1580.0   0.0005531
   1581.0   0.00055914
   1582.0   0.00056518
   1583.0   0.00057122
   1584.0   0.00057727
   1585.0   0.0005299
   1586.0   0.00048254
   1587.0   0.00043518
   1588.0   0.00038782
   1589.0   0.00049964
   1590.0   0.00061146
   1591.0   0.00072327
   1592.0   0.00083509
   1593.0   0.00081129
   1594.0   0.00078749
   1595.0   0.00076369
   1596.0   0.00073988
   1597.0   0.00067827
   1598.0   0.00061665
   1599.0   0.00055503
   1600.0   0.00049342
   1601.0   0.00042942
   1602.0   0.00036542
   1603.0   0.00030143
   1604.0   0.00023743
   1605.0   0.00026856
   1606.0   0.0002997
   1607.0   0.00033083
   1608.0   0.00036197
   1609.0   0.00038734
   1610.0   0.00041271
   1611.0   0.00043808
   1612.0   0.00046346
   1613.0   0.00044171
   1614.0   0.00041996
   1615.0   0.00039821
   1616.0   0.00037647
   1617.0   0.00043512
   1618.0   0.00049378
   1619.0   0.00055244
   1620.0   0.00061109
   1621.0   0.00055757
   1622.0   0.00050405
   1623.0   0.00045053
   1624.0   0.00039701
   1625.0   0.00033342
   1626.0   0.00026983
   1627.0   0.00020625
   1628.0   0.00014266
   1629.0   0.00022872
   1630.0   0.00031478
   1631.0   0.00040084
   1632.0   0.00048689
   1633.0   0.0004695
   1634.0   0.0004521
   1635.0   0.0004347
   1636.0   0.0004173
   1637.0   0.00050012
   1638.0   0.00058294
   1639.0   0.00066576
   1640.0   0.00074858
   1641.0   0.00069011
   1642.0   0.00063163
   1643.0   0.00057316
   1644.0   0.00051468
   1645.0   0.00065018
   1646.0   0.00078567
   1647.0   0.00092117
   1648.0   0.00105667
   1649.0   0.00101378
   1650.0   0.00097089
   1651.0   0.000928
   1652.0   0.00088511
   1653.0   0.00082047
   1654.0   0.00075583
   1655.0   0.0006912
   1656.0   0.00062656
   1657.0   0.00061937
   1658.0   0.00061218
   1659.0   0.00060499
   1660.0   0.0005978
   1661.0   0.00058965
   1662.0   0.00058149
   1663.0   0.00057334
   1664.0   0.00056518
   1665.0   0.00063894
   1666.0   0.0007127
   1667.0   0.00078646
   1668.0   0.00086022
   1669.0   0.00075541
   1670.0   0.0006506
   1671.0   0.00054579
   1672.0   0.00044098
   1673.0   0.00041513
   1674.0   0.00038927
   1675.0   0.00036342
   1676.0   0.00033756
   1677.0   0.00035049
   1678.0   0.00036342
   1679.0   0.00037635
   1680.0   0.00038927
   1681.0   0.00042377
   1682.0   0.00045826
   1683.0   0.00049275
   1684.0   0.00052725
   1685.0   0.00050967
   1686.0   0.00049209
   1687.0   0.00047451
   1688.0   0.00045693
   1689.0   0.00041138
   1690.0   0.00036583
   1691.0   0.00032029
   1692.0   0.00027474
   1693.0   0.00033086
   1694.0   0.00038698
   1695.0   0.0004431
   1696.0   0.00049922
   1697.0   0.00049112
   1698.0   0.00048303
   1699.0   0.00047493
   1700.0   0.00046684
   1701.0   0.00047391
   1702.0   0.00048097
   1703.0   0.00048804
   1704.0   0.00049511
   1705.0   0.00052042
   1706.0   0.00054573
   1707.0   0.00057104
   1708.0   0.00059635
   1709.0   0.00053776
   1710.0   0.00047916
   1711.0   0.00042056
   1712.0   0.00036197
   1713.0   0.00041561
   1714.0   0.00046925
   1715.0   0.0005229
   1716.0   0.00057654
   1717.0   0.00068962
   1718.0   0.00080271
   1719.0   0.00091579
   1720.0   0.00102888
   1721.0   0.0009495
   1722.0   0.00087013
   1723.0   0.00079075
   1724.0   0.00071137
   1725.0   0.0007211
   1726.0   0.00073082
   1727.0   0.00074055
   1728.0   0.00075028
   1729.0   0.00079915
   1730.0   0.00084802
   1731.0   0.00089689
   1732.0   0.00094576
   1733.0   0.00092776
   1734.0   0.00090975
   1735.0   0.00089175
   1736.0   0.00087375
   1737.0   0.00088758
   1738.0   0.00090142
   1739.0   0.00091525
   1740.0   0.00092908
   1741.0   0.00086711
   1742.0   0.00080513
   1743.0   0.00074315
   1744.0   0.00068117
   1745.0   0.00066341
   1746.0   0.00064565
   1747.0   0.00062789
   1748.0   0.00061013
   1749.0   0.00064299
   1750.0   0.00067585
   1751.0   0.00070871
   1752.0   0.00074158
   1753.0   0.00073076
   1754.0   0.00071995
   1755.0   0.00070914
   1756.0   0.00069832
   1757.0   0.00071059
   1758.0   0.00072285
   1759.0   0.00073511
   1760.0   0.00074738
   1761.0   0.00067186
   1762.0   0.00059635
   1763.0   0.00052084
   1764.0   0.00044533
   1765.0   0.00050635
   1766.0   0.00056736
   1767.0   0.00062837
   1768.0   0.00068938
   1769.0   0.00068473
   1770.0   0.00068008
   1771.0   0.00067543
   1772.0   0.00067078
   1773.0   0.00064667
   1774.0   0.00062257
   1775.0   0.00059847
   1776.0   0.00057436
   1777.0   0.00055745
   1778.0   0.00054054
   1779.0   0.00052362
   1780.0   0.00050671
   1781.0   0.00049203
   1782.0   0.00047735
   1783.0   0.00046267
   1784.0   0.00044799
   1785.0   0.00047687
   1786.0   0.00050574
   1787.0   0.00053462
   1788.0   0.00056349
   1789.0   0.00058989
   1790.0   0.00061629
   1791.0   0.00064269
   1792.0   0.00066909
   1793.0   0.00064837
   1794.0   0.00062765
   1795.0   0.00060693
   1796.0   0.00058621
   1797.0   0.00059503
   1798.0   0.00060384
   1799.0   0.00061266
   1800.0   0.00062148
   1801.0   0.00070225
   1802.0   0.00078302
   1803.0   0.00086378
   1804.0   0.00094455
   1805.0   0.00096038
   1806.0   0.0009762
   1807.0   0.00099203
   1808.0   0.00100786
   1809.0   0.00099125
   1810.0   0.00097463
   1811.0   0.00095802
   1812.0   0.00094141
   1813.0   0.0008833
   1814.0   0.00082518
   1815.0   0.00076707
   1816.0   0.00070896
   1817.0   0.00064124
   1818.0   0.00057352
   1819.0   0.0005058
   1820.0   0.00043808
   1821.0   0.00045451
   1822.0   0.00047095
   1823.0   0.00048738
   1824.0   0.00050381
   1825.0   0.00053293
   1826.0   0.00056204
   1827.0   0.00059116
   1828.0   0.00062028
   1829.0   0.00059762
   1830.0   0.00057497
   1831.0   0.00055232
   1832.0   0.00052966
   1833.0   0.00047542
   1834.0   0.00042117
   1835.0   0.00036692
   1836.0   0.00031268
   1837.0   0.00029147
   1838.0   0.00027027
   1839.0   0.00024906
   1840.0   0.00022786
   1841.0   0.00020899
   1842.0   0.00019012
   1843.0   0.00017125
   1844.0   0.00015237
   1845.0   0.0001568
   1846.0   0.00016122
   1847.0   0.00016564
   1848.0   0.00017006
   1849.0   0.00020312
   1850.0   0.00023617
   1851.0   0.00026923
   1852.0   0.00030228
   1853.0   0.00032524
   1854.0   0.0003482
   1855.0   0.00037115
   1856.0   0.00039411
   1857.0   0.00039501
   1858.0   0.00039592
   1859.0   0.00039682
   1860.0   0.00039773
   1861.0   0.00038124
   1862.0   0.00036475
   1863.0   0.00034826
   1864.0   0.00033176
   1865.0   0.0003781
   1866.0   0.00042443
   1867.0   0.00047076
   1868.0   0.0005171
   1869.0   0.00045355
   1870.0   0.00039
   1871.0   0.00032645
   1872.0   0.0002629
   1873.0   0.00027885
   1874.0   0.00029479
   1875.0   0.00031074
   1876.0   0.00032669
   1877.0   0.00033793
   1878.0   0.00034916
   1879.0   0.0003604
   1880.0   0.00037163
   1881.0   0.00039453
   1882.0   0.00041742
   1883.0   0.00044032
   1884.0   0.00046321
   1885.0   0.00046726
   1886.0   0.00047131
   1887.0   0.00047536
   1888.0   0.0004794
   1889.0   0.00043343
   1890.0   0.00038746
   1891.0   0.00034149
   1892.0   0.00029552
   1893.0   0.00028803
   1894.0   0.00028054
   1895.0   0.00027305
   1896.0   0.00026556
   1897.0   0.00030295
   1898.0   0.00034034
   1899.0   0.00037774
   1900.0   0.00041513
   1901.0   0.00041585
   1902.0   0.00041658
   1903.0   0.0004173
   1904.0   0.00041803
   1905.0   0.00042685
   1906.0   0.00043567
   1907.0   0.00044449
   1908.0   0.00045331
   1909.0   0.00040679
   1910.0   0.00036028
   1911.0   0.00031376
   1912.0   0.00026725
   1913.0   0.00028253
   1914.0   0.00029781
   1915.0   0.0003131
   1916.0   0.00032838
   1917.0   0.00033847
   1918.0   0.00034856
   1919.0   0.00035865
   1920.0   0.00036873
   1921.0   0.00033696
   1922.0   0.00030518
   1923.0   0.00027341
   1924.0   0.00024163
   1925.0   0.00023384
   1926.0   0.00022605
   1927.0   0.00021826
   1928.0   0.00021046
   1929.0   0.00021928
   1930.0   0.0002281
   1931.0   0.00023692
   1932.0   0.00024574
   1933.0   0.00031104
   1934.0   0.00037635
   1935.0   0.00044165
   1936.0   0.00050695
   1937.0   0.00055268
   1938.0   0.00059841
   1939.0   0.00064414
   1940.0   0.00068987
   1941.0   0.00071028
   1942.0   0.0007307
   1943.0   0.00075112
   1944.0   0.00077154
   1945.0   0.00075064
   1946.0   0.00072974
   1947.0   0.00070883
   1948.0   0.00068793
   1949.0   0.00068093
   1950.0   0.00067392
   1951.0   0.00066691
   1952.0   0.0006599
   1953.0   0.00064812
   1954.0   0.00063634
   1955.0   0.00062456
   1956.0   0.00061279
   1957.0   0.0007011
   1958.0   0.00078942
   1959.0   0.00087774
   1960.0   0.00096606
   1961.0   0.00091755
   1962.0   0.00086904
   1963.0   0.00082053
   1964.0   0.00077202
   1965.0   0.00075855
   1966.0   0.00074508
   1967.0   0.00073161
   1968.0   0.00071814
   1969.0   0.00067688
   1970.0   0.00063562
   1971.0   0.00059436
   1972.0   0.0005531
   1973.0   0.00050332
   1974.0   0.00045355
   1975.0   0.00040377
   1976.0   0.00035399
   1977.0   0.00035248
   1978.0   0.00035097
   1979.0   0.00034946
   1980.0   0.00034795
   1981.0   0.00037526
   1982.0   0.00040256
   1983.0   0.00042987
   1984.0   0.00045717
   1985.0   0.00046194
   1986.0   0.00046672
   1987.0   0.00047149
   1988.0   0.00047626
   1989.0   0.0005653
   1990.0   0.00065435
   1991.0   0.00074339
   1992.0   0.00083243
   1993.0   0.00094552
   1994.0   0.0010586
   1995.0   0.00117169
   1996.0   0.00128477
   1997.0   0.00122201
   1998.0   0.00115924
   1999.0   0.00109648
   2000.0   0.00103371
   2001.0   0.00094654
   2002.0   0.00085937
   2003.0   0.0007722
   2004.0   0.00068503
   2005.0   0.00066927
   2006.0   0.0006535
   2007.0   0.00063773
   2008.0   0.00062197
   2009.0   0.00055479
   2010.0   0.00048762
   2011.0   0.00042044
   2012.0   0.00035327
   2013.0   0.00033563
   2014.0   0.00031799
   2015.0   0.00030035
   2016.0   0.00028271
   2017.0   0.00043017
   2018.0   0.00057763
   2019.0   0.00072508
   2020.0   0.00087254
   2021.0   0.00088245
   2022.0   0.00089236
   2023.0   0.00090226
   2024.0   0.00091217
   2025.0   0.00077559
   2026.0   0.000639
   2027.0   0.00050242
   2028.0   0.00036583
   2029.0   0.00037616
   2030.0   0.00038649
   2031.0   0.00039682
   2032.0   0.00040715
   2033.0   0.00055781
   2034.0   0.00070847
   2035.0   0.00085913
   2036.0   0.00100979
   2037.0   0.00098847
   2038.0   0.00096714
   2039.0   0.00094582
   2040.0   0.00092449
   2041.0   0.00084385
   2042.0   0.0007632
   2043.0   0.00068256
   2044.0   0.00060191
   2045.0   0.00062722
   2046.0   0.00065253
   2047.0   0.00067785
   2048.0   0.00070316
   2049.0   0.00060354
   2050.0   0.00050393
   2051.0   0.00040432
   2052.0   0.0003047
   2053.0   0.00059943
   2054.0   0.00089417
   2055.0   0.0011889
   2056.0   0.00148364
   2057.0   0.0012423
   2058.0   0.00100097
   2059.0   0.00075964
   2060.0   0.00051831
   2061.0   0.00048671
   2062.0   0.00045512
   2063.0   0.00042352
   2064.0   0.00039193
   2065.0   0.0005258
   2066.0   0.00065966
   2067.0   0.00079353
   2068.0   0.00092739
   2069.0   0.00089471
   2070.0   0.00086203
   2071.0   0.00082935
   2072.0   0.00079667
   2073.0   0.0008424
   2074.0   0.00088813
   2075.0   0.00093386
   2076.0   0.00097959
   2077.0   0.00098798
   2078.0   0.00099638
   2079.0   0.00100478
   2080.0   0.00101317
   2081.0   0.00093204
   2082.0   0.00085092
   2083.0   0.00076979
   2084.0   0.00068866
   2085.0   0.00064764
   2086.0   0.00060662
   2087.0   0.00056561
   2088.0   0.00052459
   2089.0   0.00055799
   2090.0   0.0005914
   2091.0   0.00062481
   2092.0   0.00065821
   2093.0   0.000556
   2094.0   0.00045379
   2095.0   0.00035158
   2096.0   0.00024937
   2097.0   0.00027546
   2098.0   0.00030156
   2099.0   0.00032766
   2100.0   0.00035375
   2101.0   0.00033315
   2102.0   0.00031255
   2103.0   0.00029195
