# template from Kinney (ref?) for blue starburst galaxies
# it has been trimmed between 2400 and 9800 to avoid noisy parts
# It was part of yaz standard template set
# extended up to 10000 with mannucci templates
# lambda   flux
2400 0.012484
2401 0.012790
2402 0.013095
2403 0.013400
2404 0.013705
2405 0.013552
2406 0.013400
2407 0.013247
2408 0.013095
2409 0.013022
2410 0.012950
2411 0.012878
2412 0.012806
2413 0.012992
2414 0.013179
2415 0.013366
2416 0.013552
2417 0.013562
2418 0.013572
2419 0.013582
2420 0.013592
2421 0.013319
2422 0.013046
2423 0.012773
2424 0.012500
2425 0.012812
2426 0.013123
2427 0.013434
2428 0.013745
2429 0.013490
2430 0.013235
2431 0.012980
2432 0.012725
2433 0.012976
2434 0.013227
2435 0.013478
2436 0.013729
2437 0.013598
2438 0.013468
2439 0.013337
2440 0.013207
2441 0.013235
2442 0.013263
2443 0.013291
2444 0.013319
2445 0.013241
2446 0.013163
2447 0.013085
2448 0.013006
2449 0.012906
2450 0.012806
2451 0.012705
2452 0.012605
2453 0.012665
2454 0.012725
2455 0.012785
2456 0.012846
2457 0.012587
2458 0.012328
2459 0.012069
2460 0.011810
2461 0.012015
2462 0.012219
2463 0.012424
2464 0.012629
2465 0.012701
2466 0.012773
2467 0.012846
2468 0.012918
2469 0.012952
2470 0.012986
2471 0.013020
2472 0.013054
2473 0.013169
2474 0.013283
2475 0.013398
2476 0.013512
2477 0.013195
2478 0.012878
2479 0.012561
2480 0.012244
2481 0.012205
2482 0.012167
2483 0.012129
2484 0.012091
2485 0.012147
2486 0.012203
2487 0.012260
2488 0.012316
2489 0.012131
2490 0.011947
2491 0.011762
2492 0.011577
2493 0.011800
2494 0.012023
2495 0.012246
2496 0.012468
2497 0.012219
2498 0.011971
2499 0.011722
2500 0.011473
2501 0.011523
2502 0.011573
2503 0.011623
2504 0.011674
2505 0.011698
2506 0.011722
2507 0.011746
2508 0.011770
2509 0.011670
2510 0.011569
2511 0.011469
2512 0.011368
2513 0.011314
2514 0.011260
2515 0.011206
2516 0.011152
2517 0.011266
2518 0.011380
2519 0.011495
2520 0.011609
2521 0.011539
2522 0.011469
2523 0.011399
2524 0.011328
2525 0.011433
2526 0.011537
2527 0.011641
2528 0.011746
2529 0.011736
2530 0.011726
2531 0.011716
2532 0.011706
2533 0.011808
2534 0.011910
2535 0.012013
2536 0.012115
2537 0.012055
2538 0.011995
2539 0.011934
2540 0.011874
2541 0.011684
2542 0.011493
2543 0.011302
2544 0.011112
2545 0.011148
2546 0.011184
2547 0.011220
2548 0.011256
2549 0.011240
2550 0.011224
2551 0.011208
2552 0.011192
2553 0.011120
2554 0.011047
2555 0.010975
2556 0.010903
2557 0.010859
2558 0.010814
2559 0.010770
2560 0.010726
2561 0.010702
2562 0.010678
2563 0.010654
2564 0.010630
2565 0.010684
2566 0.010738
2567 0.010792
2568 0.010847
2569 0.010814
2570 0.010782
2571 0.010750
2572 0.010718
2573 0.010535
2574 0.010353
2575 0.010170
2576 0.009988
2577 0.010128
2578 0.010269
2579 0.010409
2580 0.010550
2581 0.010465
2582 0.010381
2583 0.010297
2584 0.010212
2585 0.010477
2586 0.010742
2587 0.011007
2588 0.011272
2589 0.011041
2590 0.010810
2591 0.010580
2592 0.010349
2593 0.010299
2594 0.010248
2595 0.010198
2596 0.010148
2597 0.010261
2598 0.010373
2599 0.010485
2600 0.010598
2601 0.010540
2602 0.010481
2603 0.010423
2604 0.010365
2605 0.010457
2606 0.010550
2607 0.010642
2608 0.010734
2609 0.010905
2610 0.011075
2611 0.011246
2612 0.011417
2613 0.011306
2614 0.011196
2615 0.011085
2616 0.010975
2617 0.011059
2618 0.011144
2619 0.011228
2620 0.011312
2621 0.011278
2622 0.011244
2623 0.011210
2624 0.011176
2625 0.011081
2626 0.010987
2627 0.010893
2628 0.010798
2629 0.010889
2630 0.010979
2631 0.011069
2632 0.011160
2633 0.011128
2634 0.011095
2635 0.011063
2636 0.011031
2637 0.010895
2638 0.010758
2639 0.010622
2640 0.010485
2641 0.010527
2642 0.010570
2643 0.010612
2644 0.010654
2645 0.010732
2646 0.010810
2647 0.010889
2648 0.010967
2649 0.011005
2650 0.011043
2651 0.011081
2652 0.011120
2653 0.011087
2654 0.011055
2655 0.011023
2656 0.010991
2657 0.010875
2658 0.010758
2659 0.010642
2660 0.010525
2661 0.010537
2662 0.010550
2663 0.010562
2664 0.010574
2665 0.010550
2666 0.010525
2667 0.010501
2668 0.010477
2669 0.010395
2670 0.010313
2671 0.010230
2672 0.010148
2673 0.010130
2674 0.010112
2675 0.010094
2676 0.010076
2677 0.010202
2678 0.010329
2679 0.010455
2680 0.010582
2681 0.010529
2682 0.010477
2683 0.010425
2684 0.010373
2685 0.010387
2686 0.010401
2687 0.010415
2688 0.010429
2689 0.010425
2690 0.010421
2691 0.010417
2692 0.010413
2693 0.010411
2694 0.010409
2695 0.010407
2696 0.010405
2697 0.010333
2698 0.010261
2699 0.010188
2700 0.010116
2701 0.010098
2702 0.010080
2703 0.010062
2704 0.010044
2705 0.010092
2706 0.010140
2707 0.010188
2708 0.010236
2709 0.010246
2710 0.010256
2711 0.010267
2712 0.010277
2713 0.010104
2714 0.009931
2715 0.009759
2716 0.009586
2717 0.009572
2718 0.009558
2719 0.009544
2720 0.009530
2721 0.009614
2722 0.009699
2723 0.009783
2724 0.009867
2725 0.009877
2726 0.009887
2727 0.009897
2728 0.009907
2729 0.009935
2730 0.009963
2731 0.009992
2732 0.010020
2733 0.010016
2734 0.010012
2735 0.010008
2736 0.010004
2737 0.010046
2738 0.010088
2739 0.010130
2740 0.010172
2741 0.010106
2742 0.010040
2743 0.009973
2744 0.009907
2745 0.009931
2746 0.009955
2747 0.009980
2748 0.010004
2749 0.009937
2750 0.009871
2751 0.009805
2752 0.009739
2753 0.009827
2754 0.009915
2755 0.010004
2756 0.010092
2757 0.010036
2758 0.009980
2759 0.009923
2760 0.009867
2761 0.009831
2762 0.009795
2763 0.009759
2764 0.009723
2765 0.009654
2766 0.009586
2767 0.009518
2768 0.009450
2769 0.009343
2770 0.009237
2771 0.009130
2772 0.009024
2773 0.008868
2774 0.008711
2775 0.008554
2776 0.008398
2777 0.008538
2778 0.008679
2779 0.008819
2780 0.008960
2781 0.009034
2782 0.009108
2783 0.009183
2784 0.009257
2785 0.009424
2786 0.009590
2787 0.009757
2788 0.009923
2789 0.010158
2790 0.010393
2791 0.010628
2792 0.010863
2793 0.010927
2794 0.010991
2795 0.011055
2796 0.011120
2797 0.011162
2798 0.011204
2799 0.011246
2800 0.011288
2801 0.011112
2802 0.010935
2803 0.010758
2804 0.010582
2805 0.010457
2806 0.010333
2807 0.010208
2808 0.010084
2809 0.010054
2810 0.010024
2811 0.009994
2812 0.009963
2813 0.009827
2814 0.009690
2815 0.009554
2816 0.009418
2817 0.009440
2818 0.009462
2819 0.009484
2820 0.009506
2821 0.009596
2822 0.009686
2823 0.009777
2824 0.009867
2825 0.009839
2826 0.009811
2827 0.009783
2828 0.009755
2829 0.009773
2830 0.009791
2831 0.009809
2832 0.009827
2833 0.009594
2834 0.009361
2835 0.009128
2836 0.008896
2837 0.008940
2838 0.008984
2839 0.009028
2840 0.009072
2841 0.009187
2842 0.009301
2843 0.009416
2844 0.009530
2845 0.009548
2846 0.009566
2847 0.009584
2848 0.009602
2849 0.009397
2850 0.009193
2851 0.008988
2852 0.008783
2853 0.008892
2854 0.009000
2855 0.009108
2856 0.009217
2857 0.009259
2858 0.009301
2859 0.009343
2860 0.009385
2861 0.009375
2862 0.009365
2863 0.009355
2864 0.009345
2865 0.009381
2866 0.009418
2867 0.009454
2868 0.009490
2869 0.009383
2870 0.009277
2871 0.009171
2872 0.009064
2873 0.009014
2874 0.008964
2875 0.008914
2876 0.008864
2877 0.008932
2878 0.009000
2879 0.009068
2880 0.009137
2881 0.009080
2882 0.009024
2883 0.008968
2884 0.008912
2885 0.008767
2886 0.008623
2887 0.008478
2888 0.008334
2889 0.008400
2890 0.008466
2891 0.008532
2892 0.008599
2893 0.008679
2894 0.008759
2895 0.008839
2896 0.008920
2897 0.009036
2898 0.009153
2899 0.009269
2900 0.009385
2901 0.009337
2902 0.009289
2903 0.009241
2904 0.009193
2905 0.009104
2906 0.009016
2907 0.008928
2908 0.008839
2909 0.008856
2910 0.008872
2911 0.008888
2912 0.008904
2913 0.008962
2914 0.009020
2915 0.009078
2916 0.009137
2917 0.009082
2918 0.009028
2919 0.008974
2920 0.008920
2921 0.008880
2922 0.008839
2923 0.008799
2924 0.008759
2925 0.008946
2926 0.009132
2927 0.009319
2928 0.009506
2929 0.009407
2930 0.009309
2931 0.009211
2932 0.009112
2933 0.009197
2934 0.009281
2935 0.009365
2936 0.009450
2937 0.009426
2938 0.009401
2939 0.009377
2940 0.009353
2941 0.009363
2942 0.009373
2943 0.009383
2944 0.009393
2945 0.009399
2946 0.009405
2947 0.009411
2948 0.009418
2949 0.009371
2950 0.009325
2951 0.009279
2952 0.009233
2953 0.009145
2954 0.009056
2955 0.008968
2956 0.008880
2957 0.008864
2958 0.008847
2959 0.008831
2960 0.008815
2961 0.008801
2962 0.008787
2963 0.008773
2964 0.008759
2965 0.008886
2966 0.009012
2967 0.009139
2968 0.009265
2969 0.009305
2970 0.009345
2971 0.009385
2972 0.009426
2973 0.009407
2974 0.009389
2975 0.009371
2976 0.009353
2977 0.009285
2978 0.009217
2979 0.009149
2980 0.009080
2981 0.009024
2982 0.008968
2983 0.008912
2984 0.008856
2985 0.008970
2986 0.009084
2987 0.009199
2988 0.009313
2989 0.009335
2990 0.009357
2991 0.009379
2992 0.009401
2993 0.009407
2994 0.009413
2995 0.009420
2996 0.009426
2997 0.009371
2998 0.009317
2999 0.009263
3000 0.009209
3001 0.009135
3002 0.009060
3003 0.008986
3004 0.008912
3005 0.008950
3006 0.008988
3007 0.009026
3008 0.009064
3009 0.009048
3010 0.009032
3011 0.009016
3012 0.009000
3013 0.009020
3014 0.009040
3015 0.009060
3016 0.009080
3017 0.008908
3018 0.008735
3019 0.008562
3020 0.008390
3021 0.008283
3022 0.008175
3023 0.008068
3024 0.007961
3025 0.008118
3026 0.008276
3027 0.008433
3028 0.008591
3029 0.008556
3030 0.008522
3031 0.008488
3032 0.008454
3033 0.008484
3034 0.008514
3035 0.008544
3036 0.008575
3037 0.008629
3038 0.008683
3039 0.008737
3040 0.008791
3041 0.008765
3042 0.008739
3043 0.008713
3044 0.008687
3045 0.008554
3046 0.008422
3047 0.008289
3048 0.008157
3049 0.008279
3050 0.008402
3051 0.008524
3052 0.008647
3053 0.008548
3054 0.008450
3055 0.008352
3056 0.008253
3057 0.008340
3058 0.008426
3059 0.008512
3060 0.008599
3061 0.008518
3062 0.008438
3063 0.008358
3064 0.008277
3065 0.008340
3066 0.008402
3067 0.008464
3068 0.008526
3069 0.008623
3070 0.008719
3071 0.008815
3072 0.008912
3073 0.008900
3074 0.008888
3075 0.008876
3076 0.008864
3077 0.008906
3078 0.008948
3079 0.008990
3080 0.009032
3081 0.008886
3082 0.008739
3083 0.008593
3084 0.008446
3085 0.008372
3086 0.008298
3087 0.008223
3088 0.008149
3089 0.008253
3090 0.008358
3091 0.008462
3092 0.008566
3093 0.008429
3094 0.008291
3095 0.008153
3096 0.008016
3097 0.008065
3098 0.008114
3099 0.008164
3100 0.008213
3101 0.008326
3102 0.008438
3103 0.008550
3104 0.008663
3105 0.008675
3106 0.008687
3107 0.008699
3108 0.008711
3109 0.008665
3110 0.008619
3111 0.008573
3112 0.008526
3113 0.008508
3114 0.008490
3115 0.008472
3116 0.008454
3117 0.008390
3118 0.008326
3119 0.008261
3120 0.008197
3121 0.008117
3122 0.008037
3123 0.007956
3124 0.007876
3125 0.007980
3126 0.008085
3127 0.008189
3128 0.008294
3129 0.008514
3130 0.008735
3131 0.008956
3132 0.009177
3133 0.009022
3134 0.008868
3135 0.008713
3136 0.008558
3137 0.008587
3138 0.008615
3139 0.008643
3140 0.008671
3141 0.008500
3142 0.008329
3143 0.008158
3144 0.007987
3145 0.007801
3146 0.007615
3147 0.007429
3148 0.007243
3149 0.007512
3150 0.007780
3151 0.008049
3152 0.008318
3153 0.008328
3154 0.008338
3155 0.008348
3156 0.008358
3157 0.008532
3158 0.008707
3159 0.008882
3160 0.009056
3161 0.008872
3162 0.008687
3163 0.008502
3164 0.008318
3165 0.008356
3166 0.008394
3167 0.008432
3168 0.008470
3169 0.008558
3170 0.008647
3171 0.008735
3172 0.008823
3173 0.008622
3174 0.008420
3175 0.008219
3176 0.008017
3177 0.007998
3178 0.007978
3179 0.007958
3180 0.007939
3181 0.008447
3182 0.008955
3183 0.009463
3184 0.009971
3185 0.010355
3186 0.010738
3187 0.011122
3188 0.011505
3189 0.011302
3190 0.011099
3191 0.010897
3192 0.010694
3193 0.010293
3194 0.009891
3195 0.009490
3196 0.009088
3197 0.009173
3198 0.009257
3199 0.009341
3200 0.009426
3201 0.008832
3202 0.008238
3203 0.007644
3204 0.007050
3205 0.007307
3206 0.007563
3207 0.007820
3208 0.008077
3209 0.008314
3210 0.008550
3211 0.008787
3212 0.009024
3213 0.009084
3214 0.009145
3215 0.009205
3216 0.009265
3217 0.009120
3218 0.008976
3219 0.008831
3220 0.008687
3221 0.008280
3222 0.007873
3223 0.007466
3224 0.007060
3225 0.007308
3226 0.007556
3227 0.007804
3228 0.008053
3229 0.008167
3230 0.008281
3231 0.008396
3232 0.008510
3233 0.008556
3234 0.008603
3235 0.008649
3236 0.008695
3237 0.008729
3238 0.008763
3239 0.008797
3240 0.008831
3241 0.008659
3242 0.008486
3243 0.008314
3244 0.008141
3245 0.008227
3246 0.008314
3247 0.008400
3248 0.008486
3249 0.008494
3250 0.008502
3251 0.008510
3252 0.008518
3253 0.008599
3254 0.008679
3255 0.008759
3256 0.008839
3257 0.008886
3258 0.008932
3259 0.008978
3260 0.009024
3261 0.008970
3262 0.008916
3263 0.008862
3264 0.008807
3265 0.008727
3266 0.008647
3267 0.008566
3268 0.008486
3269 0.008328
3270 0.008171
3271 0.008013
3272 0.007855
3273 0.007871
3274 0.007886
3275 0.007902
3276 0.007917
3277 0.008037
3278 0.008157
3279 0.008278
3280 0.008398
3281 0.008384
3282 0.008370
3283 0.008356
3284 0.008342
3285 0.008152
3286 0.007963
3287 0.007774
3288 0.007585
3289 0.007502
3290 0.007419
3291 0.007337
3292 0.007254
3293 0.007359
3294 0.007464
3295 0.007569
3296 0.007674
3297 0.007741
3298 0.007807
3299 0.007874
3300 0.007941
3301 0.008089
3302 0.008238
3303 0.008386
3304 0.008534
3305 0.008440
3306 0.008346
3307 0.008251
3308 0.008157
3309 0.008028
3310 0.007899
3311 0.007770
3312 0.007642
3313 0.007600
3314 0.007558
3315 0.007516
3316 0.007475
3317 0.007404
3318 0.007333
3319 0.007263
3320 0.007192
3321 0.007099
3322 0.007007
3323 0.006914
3324 0.006821
3325 0.006910
3326 0.006999
3327 0.007088
3328 0.007177
3329 0.007337
3330 0.007497
3331 0.007658
3332 0.007818
3333 0.007823
3334 0.007827
3335 0.007832
3336 0.007837
3337 0.007809
3338 0.007781
3339 0.007753
3340 0.007725
3341 0.007650
3342 0.007575
3343 0.007500
3344 0.007425
3345 0.007459
3346 0.007493
3347 0.007527
3348 0.007561
3349 0.007760
3350 0.007959
3351 0.008158
3352 0.008358
3353 0.008430
3354 0.008502
3355 0.008575
3356 0.008647
3357 0.008459
3358 0.008272
3359 0.008084
3360 0.007897
3361 0.007749
3362 0.007602
3363 0.007454
3364 0.007307
3365 0.007223
3366 0.007139
3367 0.007056
3368 0.006972
3369 0.006955
3370 0.006939
3371 0.006922
3372 0.006905
3373 0.006966
3374 0.007027
3375 0.007088
3376 0.007149
3377 0.007171
3378 0.007193
3379 0.007215
3380 0.007238
3381 0.007300
3382 0.007363
3383 0.007426
3384 0.007488
3385 0.007420
3386 0.007352
3387 0.007284
3388 0.007216
3389 0.007374
3390 0.007532
3391 0.007691
3392 0.007849
3393 0.007790
3394 0.007732
3395 0.007674
3396 0.007615
3397 0.007558
3398 0.007500
3399 0.007443
3400 0.007385
3401 0.007433
3402 0.007481
3403 0.007528
3404 0.007576
3405 0.007749
3406 0.007923
3407 0.008096
3408 0.008269
3409 0.008322
3410 0.008374
3411 0.008426
3412 0.008478
3413 0.008281
3414 0.008084
3415 0.007886
3416 0.007689
3417 0.007611
3418 0.007533
3419 0.007455
3420 0.007377
3421 0.007239
3422 0.007100
3423 0.006961
3424 0.006823
3425 0.006825
3426 0.006827
3427 0.006829
3428 0.006832
3429 0.006913
3430 0.006994
3431 0.007076
3432 0.007157
3433 0.007208
3434 0.007258
3435 0.007308
3436 0.007358
3437 0.007301
3438 0.007244
3439 0.007187
3440 0.007130
3441 0.007199
3442 0.007268
3443 0.007337
3444 0.007406
3445 0.007544
3446 0.007682
3447 0.007819
3448 0.007957
3449 0.007894
3450 0.007831
3451 0.007768
3452 0.007705
3453 0.007553
3454 0.007401
3455 0.007249
3456 0.007097
3457 0.007117
3458 0.007137
3459 0.007157
3460 0.007177
3461 0.007198
3462 0.007218
3463 0.007239
3464 0.007260
3465 0.007276
3466 0.007291
3467 0.007307
3468 0.007322
3469 0.007432
3470 0.007542
3471 0.007653
3472 0.007763
3473 0.007733
3474 0.007704
3475 0.007674
3476 0.007645
3477 0.007615
3478 0.007586
3479 0.007557
3480 0.007528
3481 0.007482
3482 0.007436
3483 0.007390
3484 0.007345
3485 0.007342
3486 0.007339
3487 0.007336
3488 0.007332
3489 0.007329
3490 0.007326
3491 0.007323
3492 0.007320
3493 0.007284
3494 0.007247
3495 0.007211
3496 0.007174
3497 0.007126
3498 0.007077
3499 0.007028
3500 0.006979
3501 0.006908
3502 0.006836
3503 0.006764
3504 0.006693
3505 0.006603
3506 0.006514
3507 0.006424
3508 0.006335
3509 0.006242
3510 0.006150
3511 0.006058
3512 0.005965
3513 0.005991
3514 0.006017
3515 0.006042
3516 0.006068
3517 0.006181
3518 0.006294
3519 0.006406
3520 0.006519
3521 0.006640
3522 0.006760
3523 0.006881
3524 0.007002
3525 0.007093
3526 0.007185
3527 0.007277
3528 0.007369
3529 0.007295
3530 0.007222
3531 0.007148
3532 0.007075
3533 0.006905
3534 0.006735
3535 0.006565
3536 0.006396
3537 0.006455
3538 0.006515
3539 0.006574
3540 0.006634
3541 0.006712
3542 0.006791
3543 0.006869
3544 0.006948
3545 0.006891
3546 0.006834
3547 0.006777
3548 0.006720
3549 0.006692
3550 0.006665
3551 0.006637
3552 0.006610
3553 0.006694
3554 0.006779
3555 0.006863
3556 0.006948
3557 0.007107
3558 0.007267
3559 0.007427
3560 0.007586
3561 0.007567
3562 0.007547
3563 0.007527
3564 0.007508
3565 0.007380
3566 0.007253
3567 0.007126
3568 0.006999
3569 0.007007
3570 0.007015
3571 0.007023
3572 0.007031
3573 0.006956
3574 0.006880
3575 0.006805
3576 0.006730
3577 0.006688
3578 0.006646
3579 0.006605
3580 0.006563
3581 0.006584
3582 0.006606
3583 0.006628
3584 0.006650
3585 0.006697
3586 0.006743
3587 0.006790
3588 0.006836
3589 0.006844
3590 0.006851
3591 0.006859
3592 0.006866
3593 0.006862
3594 0.006858
3595 0.006853
3596 0.006849
3597 0.006905
3598 0.006961
3599 0.007017
3600 0.007073
3601 0.007066
3602 0.007060
3603 0.007053
3604 0.007046
3605 0.006985
3606 0.006924
3607 0.006863
3608 0.006803
3609 0.006831
3610 0.006860
3611 0.006889
3612 0.006917
3613 0.006970
3614 0.007022
3615 0.007075
3616 0.007127
3617 0.007142
3618 0.007157
3619 0.007173
3620 0.007188
3621 0.007087
3622 0.006986
3623 0.006886
3624 0.006785
3625 0.006678
3626 0.006571
3627 0.006465
3628 0.006358
3629 0.006373
3630 0.006388
3631 0.006403
3632 0.006418
3633 0.006487
3634 0.006556
3635 0.006625
3636 0.006694
3637 0.006749
3638 0.006804
3639 0.006859
3640 0.006914
3641 0.006940
3642 0.006966
3643 0.006992
3644 0.007019
3645 0.006974
3646 0.006930
3647 0.006886
3648 0.006842
3649 0.006836
3650 0.006829
3651 0.006823
3652 0.006816
3653 0.006867
3654 0.006918
3655 0.006969
3656 0.007020
3657 0.006916
3658 0.006811
3659 0.006706
3660 0.006602
3661 0.006538
3662 0.006474
3663 0.006410
3664 0.006346
3665 0.006363
3666 0.006380
3667 0.006398
3668 0.006415
3669 0.006449
3670 0.006483
3671 0.006517
3672 0.006551
3673 0.006586
3674 0.006621
3675 0.006656
3676 0.006691
3677 0.006672
3678 0.006653
3679 0.006634
3680 0.006616
3681 0.006606
3682 0.006597
3683 0.006587
3684 0.006578
3685 0.006513
3686 0.006447
3687 0.006382
3688 0.006317
3689 0.006367
3690 0.006416
3691 0.006466
3692 0.006516
3693 0.006498
3694 0.006481
3695 0.006463
3696 0.006445
3697 0.006498
3698 0.006551
3699 0.006604
3700 0.006656
3701 0.006668
3702 0.006679
3703 0.006690
3704 0.006701
3705 0.006680
3706 0.006658
3707 0.006636
3708 0.006614
3709 0.006735
3710 0.006856
3711 0.006976
3712 0.007097
3713 0.007313
3714 0.007529
3715 0.007745
3716 0.007960
3717 0.009121
3718 0.010283
3719 0.011444
3720 0.012605
3721 0.015736
3722 0.018867
3723 0.021998
3724 0.025129
3725 0.028014
3726 0.030898
3727 0.033782
3728 0.036666
3729 0.035583
3730 0.034499
3731 0.033415
3732 0.032331
3733 0.028772
3734 0.025214
3735 0.021655
3736 0.018096
3737 0.015973
3738 0.013849
3739 0.011726
3740 0.009602
3741 0.009046
3742 0.008489
3743 0.007933
3744 0.007377
3745 0.007308
3746 0.007240
3747 0.007171
3748 0.007103
3749 0.007275
3750 0.007446
3751 0.007618
3752 0.007790
3753 0.008514
3754 0.009238
3755 0.009962
3756 0.010686
3757 0.011206
3758 0.011726
3759 0.012246
3760 0.012765
3761 0.011983
3762 0.011200
3763 0.010417
3764 0.009634
3765 0.009096
3766 0.008558
3767 0.008020
3768 0.007482
3769 0.007412
3770 0.007343
3771 0.007273
3772 0.007204
3773 0.007299
3774 0.007394
3775 0.007489
3776 0.007585
3777 0.007638
3778 0.007691
3779 0.007744
3780 0.007797
3781 0.007787
3782 0.007776
3783 0.007765
3784 0.007754
3785 0.007746
3786 0.007737
3787 0.007729
3788 0.007720
3789 0.007675
3790 0.007629
3791 0.007584
3792 0.007538
3793 0.007385
3794 0.007233
3795 0.007080
3796 0.006928
3797 0.006929
3798 0.006931
3799 0.006933
3800 0.006934
3801 0.007038
3802 0.007143
3803 0.007247
3804 0.007351
3805 0.007569
3806 0.007786
3807 0.008004
3808 0.008221
3809 0.008298
3810 0.008374
3811 0.008450
